##TITLE=NMReady_API_1H_20250712_001
##JCAMP-DX=5.01 $$ Nanalysis NMReady v2.2.4.6
##DATA TYPE=NMR FID
##DATA CLASS=NTUPLES
##ORIGIN=Nanalysis Corp.
##OWNER=Nanalysis
##LONG DATE=2025/07/12 12:49:00-0400
##SPECTROMETER/DATA SYSTEM=NMReady 60/nanalysis-X357
##INSTRUMENTAL PARAMETERS=^1H
##TEMPERATURE=31.700314
##PRESSURE=1.000000  $$ Bar
##RESOLUTION=0.00001999999949
##SAMPLE DESCRIPTION=None
##.OBSERVE FREQUENCY=60.06358507198556
##.OBSERVE NUCLEUS=^1H
##.SOLVENT NAME=DMSO-d6
##.ACQUISITION MODE=SIMULTANEOUS
##.SHIFT REFERENCE=INTERNAL, DMSO-d6, 512, 2.50000000000000
##.SOLVENT REFERENCE=2.50000000000000
##.PULSE SEQUENCE=1DPULSEACQUIRE
##.DELAY=(0.000000,0.000000)
##.FIELD=1.410755  $$ Tesla
##.OBSERVE 90=16.942324
##.ACQUISITION TIME=1.67771995761723
##.ZERO FILL=0
##.AVERAGES=1
##.DIGITISER RES=16
##.SPINNING RATE=0.000000
$$##.PHASE 0=0.00000000000000
$$##.PHASE 1=20.00000000000000
$$ NMReady specific parameters
##$SCANS=1
##$SCAN DELAY=0.090235
##$TOTAL DURATION=2.576930
##$X_PULSE=15.248092
##$RECVR_GAIN=6
##$SWEEP WIDTH=10.000000
##$RELAXATIONDELAY=0.807335
##$ZEROING=15.000000
##$APODIZATION=0.200000
##$PHASECORRECTION=0.000000,20.000000
##$PIVOT=0.000000
##$DT=0.000020
##$LOCKOFFSET=2.500000
##$SPECTRALCENTER=2.500000
##$DECIMATION=82
##$LOWESTF2=-154.719094
##$T2NUCLEUS=1H
##$PULSE_AMPLITUDE=16.271152
##$PLOTTYPE=1D
##$INTEGRALS IS MANUAL=False
##$DecouplingSettingsType=2
##$DecouplingSettingsTypeName=BBWaltz16
##$DecouplingSettingsMode=0
##$DecouplingSettingsModeName=Off
##$RDC_ENABLED=1
##$RDC_TYPE=CONT5PAR
##$RDC_DATA=(0.444701,8.325065,11.495198,0.834342,1.353197)
$$ End of NMReady specific parameters
$$ Bruker specific parameters
$$ --------------------------
##$DATE=1752338940
##$SI= 16384
##$TDeff= 1024
##$SFO1= 60.06358507198556
##$O1= 150.15896267996391
##$SF= 60.06343491302288
##$BF1= 60.06343491302288
##$AQ= 1.67771995761723
##$SWH= 609.75611296471061
##$SW= 10.15184345446454
##$SR= 0.00000000000000
##$OFFSET= 7.57594066708521
##$FIDRES= 0.59546495406710
##$O1P= 2.50000000000000
##$TD= 2048
##$DW= 819.99997928505763
##$SPECTYP= PROTON
##$NS= 1
##$DS= 0
##$DR= 16
##$DE=0.090235
##$RG=6
##$P1=15.248092
##$P= (0..2)
0.0 15.248092
##$PHC0= 10.00000000000000
##$PHC1= -20.00000000000000
##$PH_mod= 1
##$WDW= 1
##$LB= 0.20000000298023
$$ End of Bruker specific parameters
$$ ---------------------------------
##NPOINTS=1024
##DELTAX=0.0016400000
##NTUPLES=NMR FID
##VAR_NAME=TIME,FID/REAL,FID/IMAG,PAGE NUMBER
##SYMBOL=X,R,I,N
##VAR_TYPE=INDEPENDENT,DEPENDENT,DEPENDENT,PAGE
##VAR_FORM=AFFN,AFFN,AFFN,AFFN
##VAR_DIM=1024,1024,1024,2
##UNITS=SECONDS,ARBITRARY UNITS,ARBITRARY UNITS,
##FIRST=0.000000,2571.965638,-710.386613,1
##LAST=1.677720,-0.000000,0.000000,2
##MIN=0.000000,-1.602194,-710.386613,1
##MAX=1.677720,2571.965638,0.000001,2
##FACTOR=0.00163999995857011527,0.00000119766519109762,0.00000119766519109762,1
##PAGE=N=1
##DATA TABLE= (X++(R..R)), XYDATA
      0.00000000     2147483000     2124729747     1924715224     1747794280
      4.00000000     1600955936     1518216005     1489031803     1501158564
      8.00000000     1537300990     1567108757     1560494578     1513668618
     12.00000000     1420930406     1320943727     1216206867     1142836657
     16.00000000     1099063091     1095667173     1103276751     1117633304
     20.00000000     1112815488     1090144191     1041896541      983040966
     24.00000000      914328337      862828895      824311759      814533085
     28.00000000      816013508      829650882      839145055      833407526
     32.00000000      807968627      775482252      722900125      682191611
     36.00000000      644189657      627806730      622427116      632470201
     40.00000000      644541125      650384525      639657415      616670616
     44.00000000      576346530      538114044      503079020      482745137
     48.00000000      476743763      484819153      495735010      505207799
     52.00000000      501136538      484998086      454280948      424333523
     56.00000000      392861302      376701970      369857347      377655762
     60.00000000      387732255      397897969      394996839      384665345
     64.00000000      362693000      340486135      316121265      303139967
     68.00000000      295592852      299964405      306231227      312312373
     72.00000000      312108407      305997977      290842240      274235420
     76.00000000      254854734      243333317      235755701      235534961
     80.00000000      235584481      239955567      239673789      236381783
     84.00000000      226999656      214548397      200871929      190590005
     88.00000000      181405760      177125381      175217239      177790115
     92.00000000      177779614      177313718      172243171      165135068
     96.00000000      152895331      144678571      134609231      130416779
    100.00000000      127278398      128275811      129254194      131113149
    104.00000000      129222450      124754831      116673054      108777768
    108.00000000       99864828       95081333       93742945       93882557
    112.00000000       96181401       98959373       97511445       95840710
    116.00000000       89864769       84061648       76845554       72915529
    120.00000000       70093800       71037307       72363063       74304229
    124.00000000       74280378       73388928       69047664       64756941
    128.00000000       58933282       55384311       53580923       53071516
    132.00000000       54090802       55899365       55741660       55466650
    136.00000000       52373162       49807067       46104378       42984974
    140.00000000       40627571       40403696       40378753       41098622
    144.00000000       41843039       41799674       40163655       38840944
    148.00000000       35689924       33118756       30702332       29992817
    152.00000000       29529311       30296779       30677546       30678653
    156.00000000       30570010       29018024       26999343       24664820
    160.00000000       22352964       21533046       20952112       21460725
    164.00000000       22384552       22620876       22703483       21744780
    168.00000000       20423625       18568374       16466525       15688512
    172.00000000       15385830       15292096       15710354       16484759
    176.00000000       16658378       16380469       15108733       13755931
    180.00000000       12266023       11309957       10724580       10915886
    184.00000000       11200654       11581741       11778550       11421092
    188.00000000       10797127        9978658        8744287        8125999
    192.00000000        7450463        7488946        7669437        7994132
    196.00000000        8026476        8195218        7521189        7120632
    200.00000000        6276640        5731731        5190291        5029054
    204.00000000        5004683        5330687        5282629        5581129
    208.00000000        5417178        5055586        4259371        3862965
    212.00000000        3301292        3151486        2957826        3294605
    216.00000000        3299105        3402006        3112315        2976906
    220.00000000        2560620        2188357        1813186        1664810
    224.00000000        1345187        1381752        1431769        1545061
    228.00000000        1515769        1365143        1052515         812080
    232.00000000         528933         420903         314439         214551
    236.00000000         308824         445333         231623         278452
    240.00000000         100038          16967        -266137        -364381
    244.00000000        -478831        -598082        -613873        -500766
    248.00000000        -489636        -487598        -521612        -655426
    252.00000000        -715239        -910947       -1001920        -931995
    256.00000000        -978328       -1000298        -920654        -856244
    260.00000000        -860057        -863281       -1006016       -1057364
    264.00000000       -1196126       -1208068       -1254791       -1169014
    268.00000000       -1162930       -1089318       -1048505       -1063142
    272.00000000       -1170175       -1174628       -1239644       -1301794
    276.00000000       -1337765       -1246521       -1217326       -1090639
    280.00000000       -1063481       -1073822       -1076103       -1164827
    284.00000000       -1171565       -1185265       -1171849       -1124285
    288.00000000       -1148956       -1081512       -1022729       -1008278
    292.00000000        -979820       -1006818       -1016676       -1067343
    296.00000000       -1050643       -1044012       -1030855        -982187
    300.00000000        -910346        -874363        -872248        -912511
    304.00000000        -846280        -863359        -918595        -900657
    308.00000000        -875529        -845808        -788447        -756129
    312.00000000        -688323        -663041        -685738        -716887
    316.00000000        -722896        -705244        -709943        -670861
    320.00000000        -614814        -599203        -598856        -557894
    324.00000000        -558452        -557590        -559976        -572154
    328.00000000        -575201        -528804        -499679        -458016
    332.00000000        -452132        -449856        -411929        -401447
    336.00000000        -433537        -434223        -433655        -415326
    340.00000000        -370530        -369979        -344000        -316675
