##TITLE=NMReady_API_1H_20250711_000
##JCAMP-DX=5.01 $$ Nanalysis NMReady v2.2.4.6
##DATA TYPE=NMR FID
##DATA CLASS=NTUPLES
##ORIGIN=Nanalysis Corp.
##OWNER=Nanalysis
##LONG DATE=2025/07/11 10:45:40-0400
##SPECTROMETER/DATA SYSTEM=NMReady 60/nanalysis-X357
##INSTRUMENTAL PARAMETERS=^1H
##TEMPERATURE=31.700078
##PRESSURE=1.000000  $$ Bar
##RESOLUTION=0.00001999999949
##SAMPLE DESCRIPTION=None
##.OBSERVE FREQUENCY=59.97926721492190
##.OBSERVE NUCLEUS=^1H
##.SOLVENT NAME=DMSO-d6
##.ACQUISITION MODE=SIMULTANEOUS
##.SHIFT REFERENCE=INTERNAL, DMSO-d6, 512, 49.00000000000000
##.SOLVENT REFERENCE=49.00000000000000
##.PULSE SEQUENCE=1DPULSEACQUIRE
##.DELAY=(0.000000,0.000000)
##.FIELD=1.408774  $$ Tesla
##.OBSERVE 90=16.942324
##.ACQUISITION TIME=0.16367999586510
##.ZERO FILL=0
##.AVERAGES=1
##.DIGITISER RES=16
##.SPINNING RATE=0.000000
$$##.PHASE 0=0.00000000000000
$$##.PHASE 1=20.00000000000000
$$ NMReady specific parameters
##$SCANS=1
##$SCAN DELAY=0.609055
##$TOTAL DURATION=1.035726
##$X_PULSE=15.248092
##$RECVR_GAIN=50
##$SWEEP WIDTH=100.000000
##$RELAXATIONDELAY=0.262831
##$ZEROING=15.000000
##$APODIZATION=0.200000
##$PHASECORRECTION=0.000000,20.000000
##$PIVOT=0.000000
##$DT=0.000020
##$LOCKOFFSET=2.500000
##$SPECTRALCENTER=49.000000
##$DECIMATION=8
##$LOWESTF2=-186.015985
##$T2NUCLEUS=1H
##$PULSE_AMPLITUDE=16.271152
##$PLOTTYPE=1D
##$INTEGRALS IS MANUAL=False
##$DecouplingSettingsType=2
##$DecouplingSettingsTypeName=BBWaltz16
##$DecouplingSettingsMode=0
##$DecouplingSettingsModeName=Off
##$RDC_ENABLED=1
##$RDC_TYPE=CONT5PAR
##$RDC_DATA=(0.270900,6.963718,2.856594,0.807266,0.808847)
$$ End of NMReady specific parameters
$$ Bruker specific parameters
$$ --------------------------
##$DATE=1752245140
##$SI= 16384
##$TDeff= 1024
##$SFO1= 59.97926721492190
##$O1= 2938.98409353117313
##$SF= 59.97632823082836
##$BF1= 59.97632823082836
##$AQ= 0.16367999586510
##$SWH= 6250.00015788828387
##$SW= 104.20267615962774
##$SR= 0.00000000000000
##$OFFSET= 101.10629228819604
##$FIDRES= 6.10351577918778
##$O1P= 49.00000000000000
##$TD= 2048
##$DW= 79.99999797903001
##$SPECTYP= PROTON
##$NS= 1
##$DS= 0
##$DR= 16
##$DE=0.609055
##$RG=50
##$P1=15.248092
##$P= (0..2)
0.0 15.248092
##$PHC0= 10.00000000000000
##$PHC1= -20.00000000000000
##$PH_mod= 1
##$WDW= 1
##$LB= 0.20000000298023
$$ End of Bruker specific parameters
$$ ---------------------------------
##NPOINTS=1024
##DELTAX=0.0001600000
##NTUPLES=NMR FID
##VAR_NAME=TIME,FID/REAL,FID/IMAG,PAGE NUMBER
##SYMBOL=X,R,I,N
##VAR_TYPE=INDEPENDENT,DEPENDENT,DEPENDENT,PAGE
##VAR_FORM=AFFN,AFFN,AFFN,AFFN
##VAR_DIM=1024,1024,1024,2
##UNITS=SECONDS,ARBITRARY UNITS,ARBITRARY UNITS,
##FIRST=0.000000,4.142687,3.653550,1
##LAST=0.163680,-308.755014,349.425471,2
##MIN=0.000000,-717.527006,-798.079030,1
##MAX=0.163680,737.529074,917.200928,2
##FACTOR=0.00015999999595806003,0.00000042710509356545,0.00000042710509356545,1
##PAGE=N=1
##DATA TABLE= (X++(R..R)), XYDATA
      0.00000000        9699456       -5749550        4585150       21201968
      4.00000000      -21929812        -410821       -7027517        2181061
      8.00000000        3402491      -21697560         773800      -21865522
     12.00000000      -11383734       11544495       -2002784      -20979731
     16.00000000       -3977261       11866193       12343101       -8462386
     20.00000000       12222187       -4059904       15595961       37673992
     24.00000000       47424876      -25579135       56316299      -60559564
     28.00000000       10944842        7621663       17227801       29737567
     32.00000000        1386876       25649625       29611120       45933074
     36.00000000       25133557       53805334      -76822474      -72133961
     40.00000000        -197343       56247512       -7426537       22549379
     44.00000000       43630070       18369329       34340220       63228552
     48.00000000      -27778802       -6792137       37013582       62209487
     52.00000000        4290171         602888       57308152      -23465449
     56.00000000      -33472066      -46942104        -401383       52039713
     60.00000000       30554680       14969655        6668740        7415437
     64.00000000       20154622       17251447       23134017        1929361
     68.00000000       12865161       33633470       54154425      -11674602
     72.00000000       33577346      -25207105       12241732      -30150198
     76.00000000       10773851       53826332       21387628      -57098481
     80.00000000       16037836       23058184       51772048       73855537
     84.00000000       18283531       22043183      124177933      -23458670
     88.00000000       -2634565       16008455       68251342      -28040292
     92.00000000      -10261968      -26984352     -113811710      -67773212
     96.00000000       72407027      -66240098       87093136       52878747
    100.00000000     -121649026      -24307651       11553744     -135716680
    104.00000000      127747909      117763597       23417116      -19472957
    108.00000000      -46048648       67873061     -148250796      -55084340
    112.00000000       31811221     -103469572     -191286623        9349463
    116.00000000      -62767731      210423693      -43578641      106186946
    120.00000000       52594535     -110324836      -33061495       63919447
    124.00000000       60945445       14936260      -41950900      -95387366
    128.00000000      -18504920       41611217       42878849      -20578729
    132.00000000       81630168      -86116406       75457350      116241229
    136.00000000      -96147761       -1895523      -83997027      -23001501
    140.00000000      -16924441       31459080      -11889026       58641407
    144.00000000        3636190      -60662198     -156012558       -4334942
    148.00000000        9970460      -21548700       -8134757       -6351029
    152.00000000      -36958366      118126207      188480124      -93974908
    156.00000000       96761699        6629463      -48073874      -12969029
    160.00000000      -26265487      -59016763       97616067      -97532938
    164.00000000       -7251890       94381635        7448438      -45940715
    168.00000000       28913940       84545727      118789999      -57293535
    172.00000000        8483401     -144866801      -52930474       73041552
    176.00000000      -93942898      247962217      352278616      -23126141
    180.00000000      184235226      298973600      -90174910       62726760
    184.00000000      210755735      330344762      215958039      -64965799
    188.00000000     -253462309     -135134445      226126746      -93316508
    192.00000000      -52080634        -689959      -58812969     -209374022
    196.00000000      -33802707       -3069828       11940292       85848851
    200.00000000       14208127      -46450935      -45325718     -109580717
    204.00000000      -28644456     -201065295      -14496361     -174904644
    208.00000000       41160656     -301325384      -19839750      242366368
    212.00000000      220578214     -145784539       51240511       78042877
    216.00000000      -88682332       31736434      -11364967      -77023859
    220.00000000       20097175       72779607      -80196701     -178921672
    224.00000000       54785161      -71899964      144268396       96652081
    228.00000000      265286362       33971369     -233393595     -213869911
    232.00000000       13753002      -64379391       89770051     -440091853
    236.00000000       57540439     -199323327      198628904      259396889
    240.00000000      430272377     -149364151     -178228623     -169766819
    244.00000000       88645128      329960621       81316112     -176106519
    248.00000000     -219743129      505232098       89053310       41741894
    252.00000000      -40221532      502653928      104598361       86756596
    256.00000000      129154093      724659419     -275130833     -166112062
    260.00000000     -221637650     -252937741     -113465235      254940193
    264.00000000     -150525713      387442833      123076387      113064085
    268.00000000     -182240948     -141714875      -32257057       10049437
    272.00000000     -237223771      255001233      -30901193     -288001556
    276.00000000      178349930      105823183      187566888       44623169
    280.00000000     -345432251     -292936313      233177068     -304216642
    284.00000000     -137859703      138555357      263319380      277103115
    288.00000000        7160164      -20415209      -65988651        4340207
    292.00000000      108191666     -247487038      294369432       64775706
    296.00000000      237682424      102015999       -3787674     -154127382
    300.00000000      175475549      189761449      -72737477      -97184680
    304.00000000     -271851895       46388083      166942863     -204277448
    308.00000000      281600584      318086754     1196409905      320473661
    312.00000000      241765831     -670152250     -433301946       72937078
    316.00000000      436586714     -527190291      464075777      108962179
    320.00000000      376172259      175230844     -329238446      119992364
    324.00000000      502153214      206652769      463320231      143741964
    328.00000000      574687567      299609400      217416651     -198282145
    332.00000000      255701684      103499595     -270331170      890586758
    336.00000000      821609131      319393193      847948579      198141109
    340.00000000     -194356397     -236302298     -241261345      600905361
