##TITLE=NMReady_API_1H_20250712_005
##JCAMP-DX=5.01 $$ Nanalysis NMReady v2.2.4.6
##DATA TYPE=NMR FID
##DATA CLASS=NTUPLES
##ORIGIN=Nanalysis Corp.
##OWNER=Nanalysis
##LONG DATE=2025/07/12 12:59:14-0400
##SPECTROMETER/DATA SYSTEM=NMReady 60/nanalysis-X357
##INSTRUMENTAL PARAMETERS=^1H
##TEMPERATURE=31.699700
##PRESSURE=1.000000  $$ Bar
##RESOLUTION=0.00001999999949
##SAMPLE DESCRIPTION=None
##.OBSERVE FREQUENCY=60.06362009783777
##.OBSERVE NUCLEUS=^1H
##.SOLVENT NAME=DMSO
##.ACQUISITION MODE=SIMULTANEOUS
##.SHIFT REFERENCE=INTERNAL, DMSO, 1024, 5.00000000000000
##.SOLVENT REFERENCE=5.00000000000000
##.PULSE SEQUENCE=1DPULSEACQUIRE
##.DELAY=(0.000000,0.000000)
##.FIELD=1.410755  $$ Tesla
##.OBSERVE 90=16.942324
##.ACQUISITION TIME=2.78391992967227
##.ZERO FILL=0
##.AVERAGES=1
##.DIGITISER RES=16
##.SPINNING RATE=0.000000
$$##.PHASE 0=16.89837629141754
$$##.PHASE 1=19.76367777892572
$$ NMReady specific parameters
##$SCANS=1
##$SCAN DELAY=0.071595
##$TOTAL DURATION=4.068527
##$X_PULSE=15.248092
##$RECVR_GAIN=6
##$SWEEP WIDTH=12.000000
##$RELAXATIONDELAY=1.211652
##$ZEROING=15.000000
##$APODIZATION=0.200000
##$PHASECORRECTION=16.898376,19.763678
##$PIVOT=0.000000
##$DT=0.000020
##$LOCKOFFSET=2.500000
##$SPECTRALCENTER=5.000000
##$DECIMATION=68
##$LOWESTF2=-67.328968
##$T2NUCLEUS=1H
##$PULSE_AMPLITUDE=16.271152
##$PLOTTYPE=1D
##$INTEGRALS IS MANUAL=False
##$RDC_ENABLED=1
##$RDC_TYPE=CONT5PAR
##$RDC_DATA=(0.444701,8.325065,11.495198,0.834342,1.353197)
$$ End of NMReady specific parameters
$$ Bruker specific parameters
$$ --------------------------
##$DATE=1752339554
##$SI= 32768
##$TDeff= 2048
##$SFO1= 60.06362009783777
##$O1= 300.31810048918885
##$SF= 60.06331977973728
##$BF1= 60.06331977973728
##$AQ= 2.78391992967227
##$SWH= 735.29413622215111
##$SW= 12.24192173272987
##$SR= 0.00000000000000
##$OFFSET= 11.12101647135712
##$FIDRES= 0.35903033995222
##$O1P= 5.00000000000000
##$TD= 4096
##$DW= 679.99998282175511
##$SPECTYP= PROTON
##$NS= 1
##$DS= 0
##$DR= 16
##$DE=0.071595
##$RG=6
##$P1=15.248092
##$P= (0..2)
0.0 15.248092
##$PHC0= -7.01653740195468
##$PHC1= -19.76367777892572
##$PH_mod= 1
##$WDW= 1
##$LB= 0.20000000298023
$$ End of Bruker specific parameters
$$ ---------------------------------
##NPOINTS=2048
##DELTAX=0.0013600000
##NTUPLES=NMR FID
##VAR_NAME=TIME,FID/REAL,FID/IMAG,PAGE NUMBER
##SYMBOL=X,R,I,N
##VAR_TYPE=INDEPENDENT,DEPENDENT,DEPENDENT,PAGE
##VAR_FORM=AFFN,AFFN,AFFN,AFFN
##VAR_DIM=2048,2048,2048,2
##UNITS=SECONDS,ARBITRARY UNITS,ARBITRARY UNITS,
##FIRST=0.000000,2788.132822,-1121.958512,1
##LAST=2.783920,-0.000000,0.000000,2
##MIN=0.000000,-2750.979032,-3014.122573,1
##MAX=2.783920,2788.132822,2294.409059,2
##FACTOR=0.00135999996564351022,0.00000140356062079128,0.00000140356062079128,1
##PAGE=N=1
##DATA TABLE= (X++(R..R)), XYDATA
      0.00000000     1986471251     -141967492    -1960000153     -996042915
      4.00000000     1213963743     1605627947     -240360602    -1683880064
      8.00000000     -713171516     1228013766     1383311773     -397109198
     12.00000000    -1556735719     -508147111     1183035051     1147333274
     16.00000000     -462806577    -1353570064     -335847307     1097565773
     20.00000000      951074377     -495895654    -1176227576     -201961201
     24.00000000      983162316      744456006     -502196337     -989603849
     28.00000000      -88213435      903498226      619301387     -516263691
     32.00000000     -902436200      -33936875      833656356      511688226
     36.00000000     -484657419     -757671402       32620661      745887020
     40.00000000      391467448     -499887096     -668329998       96432677
     44.00000000      695313136      307323499     -485155067     -574222793
     48.00000000      127444295      624721128      239504499     -468478660
     52.00000000     -503220471      161271552      571795855      169082114
     56.00000000     -445509414     -412279501      189640556      503429871
     60.00000000      103864145     -428027489     -349728574      216875708
     64.00000000      464622712       60390730     -406360078     -292672580
     68.00000000      216126142      399090908       19300568     -374173633
     72.00000000     -230220677      233779163      360945979      -22817400
     76.00000000     -361019909     -181978321      240005950      310449747
     80.00000000      -53006190     -328758578     -140200297      237104728
     84.00000000      270262936      -74960334     -302897002      -98493991
     88.00000000      231353924      223542723      -96110377     -267152064
     92.00000000      -58397175      228919236      186815329     -118023198
     96.00000000     -248050938      -27224028      219164524      149893913
    100.00000000     -122391359     -209317396       -1162486      200750642
    104.00000000      111004895     -132671729     -182913823       26311939
    108.00000000      190745835       83101438     -134447114     -153998827
    112.00000000       40246495      170174827       57002487     -131710387
    116.00000000     -128865117       55689069      152713429       32663079
    120.00000000     -126771244     -100344201       64869401      132215216
    124.00000000        9858665     -122832356      -79584707       75738983
    128.00000000      119897051       -4636886     -116857426      -60994882
    132.00000000       76385941      100620112      -17894551     -106066094
    136.00000000      -41496590       80252406       86654461      -29703567
    140.00000000     -100667890      -27822628       81080596       72376282
    144.00000000      -37365586      -90794757      -14869747       80457407
    148.00000000       59860097      -44541457      -82442632       -2810469
    152.00000000       77306921       45787885      -48210199      -70982700
    156.00000000        7534405       74389590       34461034      -53053062
    160.00000000      -64317195       15089061       70244820       25028339
    164.00000000      -52903624      -52607337       20903795       62583993
    168.00000000       13511408      -53654605      -43495546       28406787
    172.00000000       58211889        5233405      -52720790      -34695811
    176.00000000       30616533       50999393       -1123211      -50210727
    180.00000000      -26935880       33367037       44444690       -7332125
    184.00000000      -46824849      -19104937       34344716       37419112
    188.00000000      -12480781      -43566052      -12711631       35435464
    192.00000000       32685647      -15525231      -40097711       -7920579
    196.00000000       33466597       26343932      -17457291      -34909757
    200.00000000       -2802573       32467324       20958298      -19655947
    204.00000000      -31414722        1060617       30751582       16586167
    208.00000000      -19921793      -27050153        3899821       28292609
    212.00000000       12225199      -20413421      -23250129        6476676
    216.00000000       25684347        8238996      -19893571      -19139805
    220.00000000        8262654       22985978        5131949      -19805597
    224.00000000      -15994667       10068754       20889967        2206727
    228.00000000      -18602925      -12403625       10793536       17920365
    232.00000000        -398768      -17777467       -9462924       11978416
    236.00000000       15694852       -2666424      -16759126       -6797396
    240.00000000       12115091       13252690       -4371157      -15174049
    244.00000000       -4404848       12271073       11165125       -5697773
    248.00000000      -13744360       -2063631       12068210        8659762
    252.00000000       -6737622      -12125804        -227933       11773086
    256.00000000        6635415       -7556968      -10839740        1400432
    260.00000000       11055045        4747299       -7962512       -8867410
    264.00000000        2882309       10257756        2877745       -8243626
    268.00000000       -7613226        3945100        9482745        1392025
    272.00000000       -8243493       -6047824        4689495        8336866
    276.00000000          98030       -8190366       -4657753        5394339
    280.00000000        7365951       -1030447       -7746223       -3274187
    284.00000000        5788085        6322727       -2171626       -7383133
    288.00000000       -2043165        6066922        5398036       -2802894
    292.00000000       -6686747       -1052578        5789716        4290314
    296.00000000       -3253275       -6151707         -78577        5948119
    300.00000000        3374530       -3808331       -5536085         572434
    304.00000000        5597049        2664377       -3932142       -4857129
    308.00000000        1160030        5454516        2001167       -4199762
    312.00000000       -4242322        1691436        5085326        1204215
    316.00000000       -4277761       -3662100        2040385        4819869
    320.00000000         745224       -4282187       -3185034        2354317
    324.00000000        4432420         300367       -4118049       -2611201
    328.00000000        2621893        3996861        -306384       -4087789
    332.00000000       -2085535        2803645        3635341        -592905
    336.00000000       -3864381       -1620234        2860744        3234322
    340.00000000        -935244       -3658555       -1158843        2853709
    344.00000000        2788328       -1175468       -3354412        -784241
    348.00000000        2791992        2396212       -1332674       -3140507
