##TITLE=NMReady_API_1H_20250712_002
##JCAMP-DX=5.01 $$ Nanalysis NMReady v2.2.4.6
##DATA TYPE=NMR FID
##DATA CLASS=NTUPLES
##ORIGIN=Nanalysis Corp.
##OWNER=Nanalysis
##LONG DATE=2025/07/12 12:51:44-0400
##SPECTROMETER/DATA SYSTEM=NMReady 60/nanalysis-X357
##INSTRUMENTAL PARAMETERS=^1H
##TEMPERATURE=31.700318
##PRESSURE=1.000000  $$ Bar
##RESOLUTION=0.00001999999949
##SAMPLE DESCRIPTION=None
##.OBSERVE FREQUENCY=60.06342241720411
##.OBSERVE NUCLEUS=^1H
##.SOLVENT NAME=D2O
##.ACQUISITION MODE=SIMULTANEOUS
##.SHIFT REFERENCE=INTERNAL, D2O, 512, 5.00000000000000
##.SOLVENT REFERENCE=5.00000000000000
##.PULSE SEQUENCE=1DPULSEACQUIRE
##.DELAY=(0.000000,0.000000)
##.FIELD=1.410751  $$ Tesla
##.OBSERVE 90=16.942324
##.ACQUISITION TIME=1.39127996485331
##.ZERO FILL=0
##.AVERAGES=1
##.DIGITISER RES=16
##.SPINNING RATE=0.000000
$$##.PHASE 0=9.67812738561033
$$##.PHASE 1=20.06596168661476
$$ NMReady specific parameters
##$SCANS=1
##$SCAN DELAY=0.185815
##$TOTAL DURATION=2.285351
##$X_PULSE=15.248092
##$RECVR_GAIN=6
##$SWEEP WIDTH=12.000000
##$RELAXATIONDELAY=0.706896
##$ZEROING=15.000000
##$APODIZATION=0.200000
##$PHASECORRECTION=9.678127,20.065962
##$PIVOT=0.000000
##$DT=0.000020
##$LOCKOFFSET=4.780000
##$SPECTRALCENTER=5.000000
##$DECIMATION=68
##$LOWESTF2=-67.329956
##$T2NUCLEUS=1H
##$PULSE_AMPLITUDE=16.271152
##$PLOTTYPE=1D
##$INTEGRALS IS MANUAL=False
##$DecouplingSettingsType=2
##$DecouplingSettingsTypeName=BBWaltz16
##$DecouplingSettingsMode=0
##$DecouplingSettingsModeName=Off
##$RDC_ENABLED=1
##$RDC_TYPE=CONT5PAR
##$RDC_DATA=(0.444701,8.325065,11.495198,0.834342,1.353197)
$$ End of NMReady specific parameters
$$ Bruker specific parameters
$$ --------------------------
##$DATE=1752339104
##$SI= 16384
##$TDeff= 1024
##$SFO1= 60.06342241720411
##$O1= 300.31711208602053
##$SF= 60.06312210009202
##$BF1= 60.06312210009202
##$AQ= 1.39127996485331
##$SWH= 735.29413622215111
##$SW= 12.24196202332185
##$SR= 0.00000000000000
##$OFFSET= 11.12103661675383
##$FIDRES= 0.71806067990444
##$O1P= 5.00000000000000
##$TD= 2048
##$DW= 679.99998282175511
##$SPECTYP= PROTON
##$NS= 1
##$DS= 0
##$DR= 16
##$DE=0.185815
##$RG=6
##$P1=15.248092
##$P= (0..2)
0.0 15.248092
##$PHC0= 0.35485345769705
##$PHC1= -20.06596168661476
##$PH_mod= 1
##$WDW= 1
##$LB= 0.20000000298023
$$ End of Bruker specific parameters
$$ ---------------------------------
##NPOINTS=1024
##DELTAX=0.0013600000
##NTUPLES=NMR FID
##VAR_NAME=TIME,FID/REAL,FID/IMAG,PAGE NUMBER
##SYMBOL=X,R,I,N
##VAR_TYPE=INDEPENDENT,DEPENDENT,DEPENDENT,PAGE
##VAR_FORM=AFFN,AFFN,AFFN,AFFN
##VAR_DIM=1024,1024,1024,2
##UNITS=SECONDS,ARBITRARY UNITS,ARBITRARY UNITS,
##FIRST=0.000000,2496.815974,-698.587108,1
##LAST=1.391280,0.000001,0.000001,2
##MIN=0.000000,-1315.728238,-1871.935686,1
##MAX=1.391280,2496.815974,939.853052,2
##FACTOR=0.00135999996564351022,0.00000116267089150289,0.00000116267089150289,1
##PAGE=N=1
##DATA TABLE= (X++(R..R)), XYDATA
      0.00000000     2147483000     2066411920     1840852623     1605659921
      4.00000000     1378457757     1145739351      929875223      719425873
      8.00000000      524581963      336769514      175268390       18731028
     12.00000000     -108303760     -235886306     -343503754     -449931353
     16.00000000     -552818005     -660138030     -761543548     -868795251
     20.00000000     -962824488    -1042559071    -1097141363    -1131287062
     24.00000000    -1131642881    -1113608149    -1072893655    -1017306914
     28.00000000     -944572186     -868030888     -779037286     -692044417
     32.00000000     -604771813     -523096021     -437189709     -369726758
     36.00000000     -299932623     -238232442     -170642433     -103772089
     40.00000000      -27504741       50027155      135874689      218088102
     44.00000000      302556846      375533484      445986714      500461598
     48.00000000      546156125      573375896      593516991      595079432
     52.00000000      591243107      568246236      544791891      513044341
     56.00000000      479418085      442964289      417263742      384210829
     60.00000000      356306321      324785806      293704509      251968861
     64.00000000      212139839      158874400      106995035       47720313
     68.00000000       -8770712      -67944062     -120657018     -171234600
     72.00000000     -212609591     -250643057     -277539551     -298118980
     76.00000000     -307494132     -312949473     -310549110     -311160159
     80.00000000     -306062844     -306986015     -300959909     -298972115
     84.00000000     -293072120     -285747010     -271790134     -254317028
     88.00000000     -229538556     -203647992     -171700734     -137860748
     92.00000000     -101676856      -64777131      -26190949        8841866
     96.00000000       42918640       70378101       96884031      116783380
    100.00000000      132775474      144930064      156122897      163924656
    104.00000000      173445542      177695821      185336473      187228685
    108.00000000      189424206      187076145      184938507      177707980
    112.00000000      171590304      157214794      144236015      125229841
    116.00000000      106130821       83411731       61897339       38134441
    120.00000000       18088905       -2311309      -17880800      -33237593
    124.00000000      -44960264      -56970185      -66299148      -75652127
    128.00000000      -82658879      -90022660      -94604630     -101554489
    132.00000000     -105094835     -109495312     -110887714     -114175137
    136.00000000     -111435405     -109365492     -102781934      -95416635
    140.00000000      -84831735      -73709562      -59866606      -48377657
    144.00000000      -35357584      -23649317      -11850090       -2611535
    148.00000000        7141107       14761856       23334367       29574231
    152.00000000       36280821       41179275       47821846       52830284
    156.00000000       59001833       63404651       69045535       71375970
    160.00000000       73698606       72714784       72006548       67774604
    164.00000000       64337269       57610801       51911644       45099423
    168.00000000       38965954       30647605       24289137       17153621
    172.00000000       11200833        5025239         201580       -5472095
    176.00000000       -9849641      -14941714      -19880985      -25278862
    180.00000000      -29563612      -34869753      -38556038      -42028326
    184.00000000      -43637841      -45819964      -45984529      -45683517
    188.00000000      -43897434      -42349215      -39541747      -36363343
    192.00000000      -32023307      -28567207      -24585184      -20806624
    196.00000000      -16831497      -13716441       -9986927       -7055405
    200.00000000       -3267955        -144448        4205838        7662742
    204.00000000       11373446       14587246       18260609       20661255
    208.00000000       23814641       25853920       27645684       27975450
    212.00000000       28621466       27905516       27336706       25648195
    216.00000000       24233789       22073669       20492447       18408453
    220.00000000       16900700       14519333       13146770       11126579
    224.00000000        9200895        6518230        4540584        1853158
    228.00000000        -361141       -3186392       -5407901       -7962292
    232.00000000       -9958247      -11803670      -13292188      -14530317
    236.00000000      -14888251      -15453734      -15096143      -15230895
    240.00000000      -14473497      -14462338      -13458301      -13272189
    244.00000000      -12510003      -11699516      -10614672      -10022591
    248.00000000       -8821307       -7756297       -6497997       -4995904
    252.00000000       -3278630       -2079727        -260506         865785
    256.00000000        2694852        3746039        4939112        5689893
    260.00000000        6773915        7227428        7742561        7702492
    264.00000000        8065183        8017489        8276451        7840658
    268.00000000        7765904        7403592        7177151        6649127
    272.00000000        6163503        5553694        5084787        4060898
    276.00000000        3291050        2368432        1633823         401425
    280.00000000        -143458       -1228465       -1871717       -2646759
    284.00000000       -3160807       -3632183       -3930215       -4518459
    288.00000000       -4478553       -4710200       -4637132       -4742927
    292.00000000       -4640712       -4613603       -4369077       -4339637
    296.00000000       -3988334       -3704013       -3178877       -3093883
    300.00000000       -2425248       -1968186       -1378076        -886904
    304.00000000        -213168         204397         798303        1175891
    308.00000000        1618949        1939286        2229797        2492177
    312.00000000        2761510        2720345        2855566        2867788
    316.00000000        2937406        2866461        2919908        2750438
    320.00000000        2757379        2576583        2393248        2088460
    324.00000000        1899008        1529643        1270811         838259
    328.00000000         546576         204540         -33570        -392023
    332.00000000        -636142        -954472       -1157187       -1330088
    336.00000000       -1478630       -1622101       -1715576       -1852943
    340.00000000       -1902432       -1967386       -1946346       -2009268
