##TITLE=NMReady_API_1H_20250712_004
##JCAMP-DX=5.01 $$ Nanalysis NMReady v2.2.4.6
##DATA TYPE=NMR FID
##DATA CLASS=NTUPLES
##ORIGIN=Nanalysis Corp.
##OWNER=Nanalysis
##LONG DATE=2025/07/12 12:56:40-0400
##SPECTROMETER/DATA SYSTEM=NMReady 60/nanalysis-X357
##INSTRUMENTAL PARAMETERS=^1H
##TEMPERATURE=31.700156
##PRESSURE=1.000000  $$ Bar
##RESOLUTION=0.00001999999949
##SAMPLE DESCRIPTION=None
##.OBSERVE FREQUENCY=60.06354426049703
##.OBSERVE NUCLEUS=^1H
##.SOLVENT NAME=DMSO
##.ACQUISITION MODE=SIMULTANEOUS
##.SHIFT REFERENCE=INTERNAL, DMSO, 512, 5.00000000000000
##.SOLVENT REFERENCE=5.00000000000000
##.PULSE SEQUENCE=1DPULSEACQUIRE
##.DELAY=(0.000000,0.000000)
##.FIELD=1.410754  $$ Tesla
##.OBSERVE 90=16.942324
##.ACQUISITION TIME=1.39127996485331
##.ZERO FILL=0
##.AVERAGES=1
##.DIGITISER RES=16
##.SPINNING RATE=0.000000
$$##.PHASE 0=16.89821939878594
$$##.PHASE 1=19.76420394914215
$$ NMReady specific parameters
##$SCANS=1
##$SCAN DELAY=0.303695
##$TOTAL DURATION=2.635351
##$X_PULSE=15.248092
##$RECVR_GAIN=6
##$SWEEP WIDTH=12.000000
##$RELAXATIONDELAY=0.939016
##$ZEROING=15.000000
##$APODIZATION=0.200000
##$PHASECORRECTION=16.898219,19.764204
##$PIVOT=0.000000
##$DT=0.000020
##$LOCKOFFSET=2.500000
##$SPECTRALCENTER=5.000000
##$DECIMATION=68
##$LOWESTF2=-67.329347
##$T2NUCLEUS=1H
##$PULSE_AMPLITUDE=16.271152
##$PLOTTYPE=1D
##$INTEGRALS IS MANUAL=False
##$RDC_ENABLED=1
##$RDC_TYPE=CONT5PAR
##$RDC_DATA=(0.444701,8.325065,11.495198,0.834342,1.353197)
$$ End of NMReady specific parameters
$$ Bruker specific parameters
$$ --------------------------
##$DATE=1752339400
##$SI= 16384
##$TDeff= 1024
##$SFO1= 60.06354426049703
##$O1= 300.31772130248515
##$SF= 60.06324394277573
##$BF1= 60.06324394277573
##$AQ= 1.39127996485331
##$SWH= 735.29413622215111
##$SW= 12.24193718960644
##$SR= 0.00000000000000
##$OFFSET= 11.12102420005609
##$FIDRES= 0.71806067990444
##$O1P= 5.00000000000000
##$TD= 2048
##$DW= 679.99998282175511
##$SPECTYP= PROTON
##$NS= 1
##$DS= 0
##$DR= 16
##$DE=0.303695
##$RG=6
##$P1=15.248092
##$P= (0..2)
0.0 15.248092
##$PHC0= -7.01611742421486
##$PHC1= -19.76420394914215
##$PH_mod= 1
##$WDW= 1
##$LB= 0.20000000298023
$$ End of Bruker specific parameters
$$ ---------------------------------
##NPOINTS=1024
##DELTAX=0.0013600000
##NTUPLES=NMR FID
##VAR_NAME=TIME,FID/REAL,FID/IMAG,PAGE NUMBER
##SYMBOL=X,R,I,N
##VAR_TYPE=INDEPENDENT,DEPENDENT,DEPENDENT,PAGE
##VAR_FORM=AFFN,AFFN,AFFN,AFFN
##VAR_DIM=1024,1024,1024,2
##UNITS=SECONDS,ARBITRARY UNITS,ARBITRARY UNITS,
##FIRST=0.000000,2524.294774,-1013.766730,1
##LAST=1.391280,0.000001,0.000000,2
##MIN=0.000000,-2453.013679,-2699.798605,1
##MAX=1.391280,2524.294774,2042.406738,2
##FACTOR=0.00135999996564351022,0.00000125719207321698,0.00000125719207321698,1
##PAGE=N=1
##DATA TABLE= (X++(R..R)), XYDATA
      0.00000000     2007883145     -141808417    -1951184494     -991926054
      4.00000000     1207328942     1587310243     -245726587    -1676911931
      8.00000000     -705954421     1236559790     1393309613     -422658987
     12.00000000    -1576055594     -489902433     1231182770     1152644805
     16.00000000     -521496681    -1393399343     -282760485     1178707849
     20.00000000      938168893     -610808238    -1225463521     -113861365
     24.00000000     1093013037      712215207     -622169244    -1027765398
     28.00000000       25300062      999649514      554692362     -660866574
     32.00000000     -907662198      105426131      927774931      415904937
     36.00000000     -633697881     -754271729      183135709      827625375
     40.00000000      295215785     -639624184     -645136396      243406575
     44.00000000      757244441      191850557     -607282308     -525779419
     48.00000000      284200762      661487804      103878695     -590508532
     52.00000000     -437450619      317285576      607594188       35849267
     56.00000000     -554024191     -346646980      334403308      514720961
     60.00000000      -32069139     -519813348     -259627045      353596090
     64.00000000      458745916      -84204435     -480847350     -193723413
     68.00000000      351351388      374911208     -123100596     -437530633
     72.00000000     -123430186      353467251      326149637     -162274685
     76.00000000     -398973920      -71539194      341085644      256045279
     80.00000000     -178739448     -348467384      -21560259      323294613
     84.00000000      207663649     -199374895     -310186255       12136973
     88.00000000      304234216      153374554     -200819941     -261230654
     92.00000000       51616738      277660323      109069996     -214450705
     96.00000000     -221141791       79584814      258307647       64946594
    100.00000000     -206031435     -179342256       99709481      225134701
    104.00000000       29184088     -204944986     -142185015      117335566
    108.00000000      203724048       -3167824     -193736340     -104630869
    112.00000000      129873843      169518661      -30509446     -184738949
    116.00000000      -71532123      137727482      146831880      -52855878
    120.00000000     -166970643      -44161467      136448311      114527424
    124.00000000      -67034569     -149715355      -13530197      135887722
    128.00000000       90134314      -83858493     -130865294        6438617
    132.00000000      129623648       62606024      -88749399     -110116794
    136.00000000       28045896      120975766       40087805      -96700948
    140.00000000      -90454608       42256154      110124899       18811452
    144.00000000      -94438366      -71176689       52426025       97277836
    148.00000000        4081866      -93678336      -54840746       58776622
    152.00000000       86167498      -10580465      -85842825      -39094621
    156.00000000       62776724       71125594      -21021328      -82557088
    160.00000000      -24025448       65434256       59928417      -30465027
    164.00000000      -73307669      -12309603       65132602       46142074
    168.00000000      -36511416      -66405607          67437       64191295
    172.00000000       35897729      -42665417      -57120096        7965944
    176.00000000       60458514       24789432      -43704911      -49466432
    180.00000000       16212637       56960945       16814768      -46172771
    184.00000000      -41104772       20977480       51569161        7909898
    188.00000000      -44597093      -33191857       26246428       46498290
    192.00000000        1297748      -45039426      -26162021       28029315
    196.00000000       41362770       -4624501      -41806464      -19571013
    200.00000000       30053467       35317105       -9265444      -40286325
    204.00000000      -13178557       30627436       30563450      -12801293
    208.00000000      -36007884       -8174813       30858015       24598921
    212.00000000      -16010310      -33436177       -2811412       30210994
    216.00000000       20053429      -18155443      -28812704        1221453
    220.00000000       28477980       14429019      -19502960      -25606763
    224.00000000        5156143       27442660       10632872      -20662685
    228.00000000      -21232825        7524845       24857956        5905280
    232.00000000      -20569480      -17489794       10894891       22522757
    236.00000000        2591376      -20604263      -13373945       11888371
    240.00000000       19717830        -835258      -19333382      -10296008
    244.00000000       13448751       17093571       -3246394      -18720974
    248.00000000       -6847743       13549618       14329480       -5416150
    252.00000000      -16478975       -4171865       14035956       11308497
    256.00000000       -7074295      -15099688       -1206256       13615141
    260.00000000        8876153       -8303319      -12789010         663659
    264.00000000       13012941        6217112       -9020793      -11265022
    268.00000000        2728124       11980602        4374271       -9240447
    272.00000000       -8818278        3740380       10752089        1997889
    276.00000000       -9211103       -7168930        5261082        9637069
    280.00000000         568570       -9076724       -5304017        5498302
    284.00000000        8276963        -971582       -8368395       -3753821
    288.00000000        6277870        6928712       -2083178       -7965865
    292.00000000       -2394670        6259368        5752630       -2998355
    296.00000000       -7150202       -1018089        6516117        4494634
    300.00000000       -3624584       -6431567         -46845        6103544
    304.00000000        3376746       -4099687       -5512938         891950
    308.00000000        5886206        2218918       -4411792       -4786856
    312.00000000        1731914        5460228        1546094       -4555005
    316.00000000       -3811859        2239605        5046900         516865
    320.00000000       -4591909       -3154415        2758568        4525481
    324.00000000         -69662       -4492846       -2368263        2917096
    328.00000000        3991840        -750754       -4309620       -1749715
    332.00000000        3232811        3471322       -1147835       -4032732
    336.00000000       -1051494        3314030        2929913       -1644891
    340.00000000       -3747640        -572952        3401934        2395277
    344.00000000       -1865235       -3440197         -65928        3250527
    348.00000000        1891080       -2121250       -3038800         330590
