##TITLE=NMReady_API_1H_20250712_003
##JCAMP-DX=5.01 $$ Nanalysis NMReady v2.2.4.6
##DATA TYPE=NMR FID
##DATA CLASS=NTUPLES
##ORIGIN=Nanalysis Corp.
##OWNER=Nanalysis
##LONG DATE=2025/07/12 12:53:18-0400
##SPECTROMETER/DATA SYSTEM=NMReady 60/nanalysis-X357
##INSTRUMENTAL PARAMETERS=^1H
##TEMPERATURE=31.700281
##PRESSURE=1.000000  $$ Bar
##RESOLUTION=0.00001999999949
##SAMPLE DESCRIPTION=None
##.OBSERVE FREQUENCY=60.06354967744994
##.OBSERVE NUCLEUS=^1H
##.SOLVENT NAME=DMSO
##.ACQUISITION MODE=SIMULTANEOUS
##.SHIFT REFERENCE=INTERNAL, DMSO, 512, 5.00000000000000
##.SOLVENT REFERENCE=5.00000000000000
##.PULSE SEQUENCE=1DPULSEACQUIRE
##.DELAY=(0.000000,0.000000)
##.FIELD=1.410754  $$ Tesla
##.OBSERVE 90=16.942324
##.ACQUISITION TIME=1.39127996485331
##.ZERO FILL=0
##.AVERAGES=1
##.DIGITISER RES=16
##.SPINNING RATE=0.000000
$$##.PHASE 0=16.89806244700103
$$##.PHASE 1=19.76451154309246
$$ NMReady specific parameters
##$SCANS=1
##$SCAN DELAY=0.303695
##$TOTAL DURATION=2.635351
##$X_PULSE=15.248092
##$RECVR_GAIN=4
##$SWEEP WIDTH=12.000000
##$RELAXATIONDELAY=0.939016
##$ZEROING=15.000000
##$APODIZATION=0.200000
##$PHASECORRECTION=16.898062,19.764512
##$PIVOT=0.000000
##$DT=0.000020
##$LOCKOFFSET=2.500000
##$SPECTRALCENTER=5.000000
##$DECIMATION=68
##$LOWESTF2=-67.329320
##$T2NUCLEUS=1H
##$PULSE_AMPLITUDE=16.271152
##$PLOTTYPE=1D
##$INTEGRALS IS MANUAL=False
##$RDC_ENABLED=1
##$RDC_TYPE=CONT5PAR
##$RDC_DATA=(0.444701,8.325065,11.495198,0.834342,1.353197)
$$ End of NMReady specific parameters
$$ Bruker specific parameters
$$ --------------------------
##$DATE=1752339198
##$SI= 16384
##$TDeff= 1024
##$SFO1= 60.06354967744994
##$O1= 300.31774838724971
##$SF= 60.06324935970155
##$BF1= 60.06324935970155
##$AQ= 1.39127996485331
##$SWH= 735.29413622215111
##$SW= 12.24193608554253
##$SR= 0.00000000000000
##$OFFSET= 11.12102364802137
##$FIDRES= 0.71806067990444
##$O1P= 5.00000000000000
##$TD= 2048
##$DW= 679.99998282175511
##$SPECTYP= PROTON
##$NS= 1
##$DS= 0
##$DR= 16
##$DE=0.303695
##$RG=4
##$P1=15.248092
##$P= (0..2)
0.0 15.248092
##$PHC0= -7.01580667545481
##$PHC1= -19.76451154309246
##$PH_mod= 1
##$WDW= 1
##$LB= 0.20000000298023
$$ End of Bruker specific parameters
$$ ---------------------------------
##NPOINTS=1024
##DELTAX=0.0013600000
##NTUPLES=NMR FID
##VAR_NAME=TIME,FID/REAL,FID/IMAG,PAGE NUMBER
##SYMBOL=X,R,I,N
##VAR_TYPE=INDEPENDENT,DEPENDENT,DEPENDENT,PAGE
##VAR_FORM=AFFN,AFFN,AFFN,AFFN
##VAR_DIM=1024,1024,1024,2
##UNITS=SECONDS,ARBITRARY UNITS,ARBITRARY UNITS,
##FIRST=0.000000,1811.351942,-746.100692,1
##LAST=1.391280,-0.000000,0.000001,2
##MIN=0.000000,-1697.765629,-1943.412831,1
##MAX=1.391280,1811.351942,1333.992636,2
##FACTOR=0.00135999996564351022,0.00000090497239358807,0.00000090497239358807,1
##PAGE=N=1
##DATA TABLE= (X++(R..R)), XYDATA
      0.00000000     2001554914     -107435807    -1876041348    -1002803921
      4.00000000     1047279569     1402730241     -259931230    -1469249394
      8.00000000     -478093712     1247065069     1221458963     -548055098
     12.00000000    -1540789678     -430678564     1165464682     1066336866
     16.00000000     -423778644    -1169832154     -202914724      987196445
     20.00000000      693347155     -631106947    -1054903006        1269202
     24.00000000     1048361292      649286565     -577689441     -950708949
     28.00000000      -31667152      831087469      469848975     -535277017
     32.00000000     -709848065      160539051      809866043      300905661
     36.00000000     -628211865     -694492588      177988311      763558434
     40.00000000      298053167     -528669489     -552304357      196186873
     44.00000000      613604366      111794492     -549134122     -422913573
     48.00000000      311790085      614067778       82593650     -548521917
     52.00000000     -406933190      259424094      515813538       30524310
     56.00000000     -450239648     -255967881      316559548      425183303
     60.00000000      -75444514     -488985538     -221449167      336917611
     64.00000000      417939159      -65446588     -410699979     -160435541
     68.00000000      291268427      292989101     -133693769     -369629082
     72.00000000      -65877593      341255386      281025998     -166514374
     76.00000000     -369676803      -68871145      296023579      223021451
     80.00000000     -147956966     -283498663        2147555      284465162
     84.00000000      155473963     -207174867     -280589618       32179123
     88.00000000      292798642      143753820     -180825957     -234679600
     92.00000000       42533959      236080056       78073402     -195051316
     96.00000000     -178161856       98513071      238955021       44297001
    100.00000000     -205290053     -167134992       93084678      203786084
    104.00000000       26581169     -174846535     -109401740      112608884
    108.00000000      166374701      -25170043     -180341216      -82966967
    112.00000000      129318168      155884008      -26976470     -161389023
    116.00000000      -62685866      112285151      114578080      -50802010
    120.00000000     -134771431      -21634125      125273309       93642664
    124.00000000      -67426725     -135325108      -15319516      115985299
    128.00000000       81010001      -62703933     -104007057        5959335
    132.00000000      102759840       44922307      -78955408      -92865063
    136.00000000       26508554      108690578       40952055      -79782975
    140.00000000      -82552881       24720993       88789105       20235562
    144.00000000      -73748183      -57428363       45490478       83553367
    148.00000000        3316940      -83454871      -52709340       46784365
    152.00000000       76815351        -785235      -68853637      -35318975
    156.00000000       48129691       57840640      -17603207      -70638145
    160.00000000      -21339391       56926730       56399590      -21425759
    164.00000000      -64966730      -17515940       49612279       41622577
    168.00000000      -24947806      -53691221       -1194202       53542930
    172.00000000       32291943      -35475065      -52654268        1701164
    176.00000000       51177486       28175073      -31112289      -42227845
    180.00000000        8073348       43464818       14770354      -37215543
    184.00000000      -35004553       16281853       44842410       10776987
    188.00000000      -35953006      -31971634       15837802       36833670
    192.00000000        4878609      -33002102      -20810341       20990978
    196.00000000       33114972       -3056005      -34459513      -18325523
    200.00000000       22551751       30714471       -2909705      -30426791
    204.00000000      -12309631       21264226       22591290       -9660417
    208.00000000      -27708515       -6781779       24793825       20836690
    212.00000000      -11082453      -26909411       -4830016       21673167
    216.00000000       16519462      -11614904      -20901667         312185
    220.00000000       21037468       11261802      -14474449      -20414514
    224.00000000        2406633       20463261       10306610      -13333047
    228.00000000      -16185206        3481989       16862520        4944626
    232.00000000      -13786032      -12942018        7051433       16825986
    236.00000000        3563862      -14072766      -11412196        5971828
    240.00000000       13909345        1685230      -11728703       -7972341
    244.00000000        7789417       11584014        -919538      -12315805
    248.00000000       -6191954        7959563       10601455       -1331080
    252.00000000      -10477656       -4639330        7435466        7959778
    256.00000000       -3055040       -9388722       -1759705        8064169
    260.00000000        6896107       -3855951       -8593680       -1338730
    264.00000000        7346192        5140007       -4004528       -7033067
    268.00000000         578734        6797814        3378577       -5120798
    272.00000000       -5951477        1368839        6742014        2369894
    276.00000000       -4688854       -5016906        1900296        5457633
    280.00000000         928619       -4836015       -3268046        2732564
    284.00000000        5017607        -184834       -4803549       -2749021
    288.00000000        3164847        4149270        -668297       -4156762
    292.00000000       -1543644        3082973        3171857       -1536976
    296.00000000       -3992128        -689480        3483888        2714511
    300.00000000       -1654464       -3538552        -199425        3075565
    304.00000000        1853863       -2221514       -2819754         544172
    308.00000000        3125459        1113420       -2435060       -2496471
    312.00000000         844145        2838241         807458       -2279621
    316.00000000       -1880731        1135283        2420655          93406
    320.00000000       -2368173       -1476639        1600000        2252111
    324.00000000        -137902       -2256341       -1123023        1489219
    328.00000000        1838731        -525739       -2077279        -584277
    332.00000000        1731257        1524101        -833535       -2044733
    336.00000000        -386560        1685126        1377678        -885764
    340.00000000       -1734847        -109740        1640654         876776
    344.00000000       -1051365       -1580325         253737        1671891
    348.00000000         775046       -1192271       -1404958         243274
